Number of frames: 1000
Frequency: 100
Units: mm

Frame,Marker_1 x,Marker_1 y,Marker_1 z,Marker_2 x,Marker_2 y,Marker_2 z,Marker_3 x,Marker_3 y,Marker_3 z,Marker_4 x,Marker_4 y,Marker_4 z,Marker_5 x,Marker_5 y,Marker_5 z,Marker_6 x,Marker_6 y,Marker_6 z,Marker_7 x,Marker_7 y,Marker_7 z
1,463.250244141,-619.788208008,-3496.925537109,495.846954346,-656.566894531,-3504.948730469,533.614562988,-624.669982910,-3498.017822266,500.819976807,-587.920532227,-3489.882324219,,,,,,,,,,
2,463.312225342,-619.766845703,-3496.918945313,495.915344238,-656.545288086,-3504.968994141,533.681396484,-624.639465332,-3498.021484375,500.881408691,-587.896057129,-3489.876953125,,,,,,,,,,
3,463.392181396,-619.739501953,-3496.883300781,496.008270264,-656.512023926,-3504.959960938,533.774658203,-624.594726563,-3498.041748047,500.967681885,-587.868530273,-3489.900634766,,,,,,,,,,
4,463.509155273,-619.711364746,-3496.851806641,496.156799316,-656.470336914,-3504.976318359,533.895507813,-624.528137207,-3498.058837891,501.078338623,-587.822692871,-3489.908935547,,,,,,,,,,
5,463.614959717,-619.668945313,-3496.820800781,496.281158447,-656.424194336,-3504.978515625,534.003784180,-624.459228516,-3498.062744141,501.172851563,-587.765930176,-3489.881103516,,,,,,,,,,
6,463.709472656,-619.632873535,-3496.825683594,496.385406494,-656.382141113,-3504.960205078,534.096130371,-624.408691406,-3498.042968750,501.246368408,-587.719299316,-3489.867187500,,,,,,,,,,
7,463.759887695,-619.597351074,-3496.831787109,496.441711426,-656.337829590,-3504.911621094,534.149963379,-624.375122070,-3498.019287109,501.297851563,-587.677246094,-3489.818359375,,,,,,,,,,
8,463.783416748,-619.559814453,-3496.829833984,496.470153809,-656.308288574,-3504.922363281,534.174438477,-624.347229004,-3497.991699219,501.325012207,-587.648986816,-3489.813232422,,,,,,,,,,
9,463.817413330,-619.547241211,-3496.852783203,496.498016357,-656.290100098,-3504.898193359,534.200317383,-624.328857422,-3498.001464844,501.352203369,-587.629150391,-3489.820556641,,,,,,,,,,
10,463.834167480,-619.539733887,-3496.812744141,496.514251709,-656.285888672,-3504.885498047,534.216430664,-624.324157715,-3498.000976563,501.365570068,-587.615051270,-3489.802001953,,,,,,,,,,
11,463.856750488,-619.548828125,-3496.834960938,496.528320313,-656.295043945,-3504.857910156,534.238708496,-624.333312988,-3497.986083984,501.382049561,-587.623657227,-3489.816894531,,,,,,,,,,
12,463.867828369,-619.571472168,-3496.836914063,496.535827637,-656.324707031,-3504.857666016,534.251647949,-624.369567871,-3498.015136719,501.401824951,-587.653015137,-3489.837646484,,,,,,,,,,
13,463.858184814,-619.590270996,-3496.833251953,496.512725830,-656.354614258,-3504.872070313,534.251159668,-624.409118652,-3498.049316406,501.415466309,-587.687316895,-3489.877685547,,,,,,,,,,
14,463.847503662,-619.602966309,-3496.844482422,496.488433838,-656.381835938,-3504.881347656,534.252624512,-624.458068848,-3498.098632813,501.425079346,-587.715209961,-3489.906250000,,,,,,,,,,
15,463.824310303,-619.609619141,-3496.906494141,496.439849854,-656.404113770,-3504.912353516,534.214294434,-624.496948242,-3498.119140625,501.424652100,-587.743896484,-3489.924560547,,,,,,,,,,
16,463.809936523,-619.615234375,-3496.944824219,496.398742676,-656.431579590,-3504.964355469,534.191101074,-624.552246094,-3498.177978516,501.425689697,-587.778259277,-3489.961669922,,,,,,,,,,
17,463.800506592,-619.613525391,-3497.038085938,496.358703613,-656.445434570,-3505.051269531,534.169250488,-624.597595215,-3498.224121094,501.427429199,-587.805664063,-3490.007812500,,,,,,,,,,
18,463.783081055,-619.599182129,-3497.090576172,496.323181152,-656.446350098,-3505.151855469,534.145996094,-624.610839844,-3498.280029297,501.430450439,-587.813110352,-3490.065917969,,,,,,,,,,
19,463.780761719,-619.578857422,-3497.169433594,496.311950684,-656.436645508,-3505.262695313,534.153930664,-624.618225098,-3498.402343750,501.441009521,-587.809204102,-3490.146728516,,,,,,,,,,
20,463.775054932,-619.552429199,-3497.273681641,496.279846191,-656.415832520,-3505.378173828,534.135437012,-624.619262695,-3498.494628906,501.440582275,-587.793029785,-3490.201904297,,,,,,,,,,
21,463.757049561,-619.526733398,-3497.407958984,496.233093262,-656.405090332,-3505.516601563,534.111938477,-624.640747070,-3498.600585938,501.444335938,-587.794250488,-3490.297851563,,,,,,,,,,
22,463.727783203,-619.485656738,-3497.491210938,496.177337646,-656.409790039,-3505.719238281,534.084594727,-624.673156738,-3498.736328125,501.445068359,-587.805664063,-3490.433593750,,,,,,,,,,
23,463.702697754,-619.453796387,-3497.620849609,496.136718750,-656.395507813,-3505.921386719,534.053039551,-624.682312012,-3498.960693359,501.435180664,-587.789978027,-3490.543701172,,,,,,,,,,
24,463.708953857,-619.416564941,-3497.747558594,496.115112305,-656.359252930,-3506.110351563,534.053283691,-624.650329590,-3499.198242188,501.454284668,-587.757751465,-3490.730957031,,,,,,,,,,
25,463.722595215,-619.381530762,-3497.891357422,496.119750977,-656.316223145,-3506.328857422,534.060119629,-624.617309570,-3499.425292969,501.496887207,-587.725524902,-3490.929687500,,,,,,,,,,
26,463.753143311,-619.353271484,-3498.082519531,496.100708008,-656.316223145,-3506.599609375,534.070861816,-624.664794922,-3499.660644531,501.561096191,-587.749572754,-3491.127441406,,,,,,,,,,
27,463.737976074,-619.325988770,-3498.309082031,496.055755615,-656.312683105,-3506.904785156,534.071166992,-624.725219727,-3499.871582031,501.607940674,-587.791931152,-3491.298583984,,,,,,,,,,
28,463.751007080,-619.288391113,-3498.567382813,496.038452148,-656.269042969,-3507.162353516,534.070617676,-624.713745117,-3500.109375000,501.636779785,-587.783386230,-3491.531494141,,,,,,,,,,
29,463.782379150,-619.234985352,-3498.782958984,496.036712646,-656.225952148,-3507.409667969,534.090148926,-624.681457520,-3500.400634766,501.676086426,-587.743469238,-3491.778808594,,,,,,,,,,
30,463.793304443,-619.187316895,-3499.075927734,496.008239746,-656.170837402,-3507.677246094,534.094787598,-624.667358398,-3500.683105469,501.705688477,-587.713195801,-3491.991699219,,,,,,,,,,
31,463.803527832,-619.124633789,-3499.346191406,496.008453369,-656.105407715,-3507.989501953,534.104858398,-624.637817383,-3500.967285156,501.732452393,-587.682128906,-3492.202636719,,,,,,,,,,
32,463.821502686,-619.061828613,-3499.556152344,496.006042480,-656.054199219,-3508.308593750,534.121765137,-624.607177734,-3501.251708984,501.769073486,-587.650817871,-3492.429931641,,,,,,,,,,
33,463.814697266,-619.013610840,-3499.767578125,495.977600098,-656.023376465,-3508.560791016,534.115844727,-624.614990234,-3501.489501953,501.786346436,-587.638732910,-3492.628173828,,,,,,,,,,
34,463.813354492,-618.973022461,-3500.010742188,495.948303223,-655.977294922,-3508.803222656,534.107666016,-624.613037109,-3501.720458984,501.787628174,-587.622497559,-3492.763427734,,,,,,,,,,
35,463.802459717,-618.919738770,-3500.163818359,495.929656982,-655.926330566,-3508.991455078,534.101684570,-624.570373535,-3501.929443359,501.789794922,-587.575683594,-3492.895507813,,,,,,,,,,
36,463.806823730,-618.852233887,-3500.269287109,495.926940918,-655.873779297,-3509.145996094,534.110168457,-624.532897949,-3502.092773438,501.804168701,-587.522888184,-3493.033447266,,,,,,,,,,
37,463.807281494,-618.785888672,-3500.424316406,495.920867920,-655.810791016,-3509.299316406,534.100585938,-624.484802246,-3502.201660156,501.809173584,-587.471740723,-3493.131591797,,,,,,,,,,
38,463.806304932,-618.723876953,-3500.550292969,495.918029785,-655.751831055,-3509.456787109,534.101440430,-624.420471191,-3502.336669922,501.818542480,-587.412109375,-3493.288818359,,,,,,,,,,
39,463.811004639,-618.648681641,-3500.619873047,495.916107178,-655.703979492,-3509.580566406,534.099853516,-624.364990234,-3502.423339844,501.835296631,-587.352783203,-3493.433105469,,,,,,,,,,
40,463.810516357,-618.590576172,-3500.813476563,495.909240723,-655.647338867,-3509.732666016,534.099121094,-624.327941895,-3502.511474609,501.835052490,-587.310791016,-3493.530029297,,,,,,,,,,
41,463.821838379,-618.532409668,-3500.966552734,495.914154053,-655.578430176,-3509.875976563,534.101928711,-624.272216797,-3502.599121094,501.842895508,-587.263671875,-3493.636718750,,,,,,,,,,
42,463.848022461,-618.480712891,-3501.122558594,495.953735352,-655.517150879,-3510.102050781,534.135253906,-624.207031250,-3502.796630859,501.873901367,-587.205566406,-3493.807128906,,,,,,,,,,
43,463.895538330,-618.431884766,-3501.317871094,496.006927490,-655.453369141,-3510.327392578,534.185791016,-624.146728516,-3503.007324219,501.922576904,-587.161437988,-3493.993164063,,,,,,,,,,
44,463.966461182,-618.379211426,-3501.510498047,496.065124512,-655.387451172,-3510.532470703,534.247680664,-624.096801758,-3503.171386719,501.980285645,-587.122863770,-3494.107421875,,,,,,,,,,
45,464.031921387,-618.322326660,-3501.682617188,496.139648438,-655.318298340,-3510.725097656,534.323730469,-624.041320801,-3503.347412109,502.048889160,-587.076660156,-3494.225341797,,,,,,,,,,
46,464.118286133,-618.257873535,-3501.847900391,496.219909668,-655.246215820,-3510.883300781,534.409851074,-623.976806641,-3503.504638672,502.126159668,-587.019653320,-3494.342773438,,,,,,,,,,
47,464.171508789,-618.169128418,-3501.929931641,496.261779785,-655.172729492,-3511.005371094,534.473876953,-623.926574707,-3503.635253906,502.195861816,-586.958557129,-3494.442626953,,,,,,,,,,
48,464.183105469,-618.062133789,-3502.052001953,496.248565674,-655.099670410,-3511.146728516,534.486877441,-623.890808105,-3503.680175781,502.239379883,-586.901977539,-3494.515380859,,,,,,,,,,
49,464.204406738,-617.954589844,-3502.265380859,496.235534668,-655.006347656,-3511.284912109,534.499511719,-623.845886230,-3503.787353516,502.267120361,-586.837036133,-3494.595458984,,,,,,,,,,
50,464.252899170,-617.845703125,-3502.497070313,496.271362305,-654.910705566,-3511.529785156,534.528320313,-623.770019531,-3503.905029297,502.309356689,-586.753234863,-3494.726074219,,,,,,,,,,
51,464.325592041,-617.739440918,-3502.738281250,496.328552246,-654.816894531,-3511.755126953,534.587890625,-623.700500488,-3504.004882813,502.383300781,-586.668334961,-3494.881103516,,,,,,,,,,
52,464.393920898,-617.615539551,-3502.941162109,496.388092041,-654.711791992,-3511.980224609,534.654052734,-623.620727539,-3504.112060547,502.466033936,-586.577514648,-3495.055175781,,,,,,,,,,
53,464.461273193,-617.496215820,-3503.090332031,496.474884033,-654.577819824,-3512.174072266,534.746520996,-623.496643066,-3504.312011719,502.543945313,-586.456359863,-3495.227050781,,,,,,,,,,
54,464.567474365,-617.359497070,-3503.263183594,496.602203369,-654.404357910,-3512.380859375,534.872924805,-623.311340332,-3504.650634766,502.643218994,-586.302429199,-3495.482666016,,,,,,,,,,
55,464.695648193,-617.227600098,-3503.540283203,496.735412598,-654.228149414,-3512.662841797,535.008850098,-623.132568359,-3504.999023438,502.754791260,-586.152709961,-3495.723876953,,,,,,,,,,
56,464.836395264,-617.077697754,-3503.853515625,496.891510010,-654.071838379,-3513.076171875,535.128173828,-622.968566895,-3505.232177734,502.889587402,-586.013488770,-3495.931884766,,,,,,,,,,
57,464.959930420,-616.941040039,-3504.205322266,496.991210938,-653.953918457,-3513.486572266,535.234191895,-622.888000488,-3505.453857422,503.038543701,-585.916503906,-3496.151367188,,,,,,,,,,
58,465.068298340,-616.778259277,-3504.425781250,497.100677490,-653.795776367,-3513.860595703,535.354064941,-622.747375488,-3505.775878906,503.177642822,-585.790832520,-3496.416748047,,,,,,,,,,
59,465.231414795,-616.614257813,-3504.660888672,497.278228760,-653.608215332,-3514.240966797,535.524536133,-622.551513672,-3506.227783203,503.331420898,-585.616027832,-3496.734619141,,,,,,,,,,
60,465.380523682,-616.454345703,-3505.042236328,497.391052246,-653.443847656,-3514.628417969,535.669433594,-622.426208496,-3506.613525391,503.480041504,-585.467224121,-3496.963378906,,,,,,,,,,
61,465.496490479,-616.283874512,-3505.479492188,497.479339600,-653.263488770,-3515.032958984,535.758117676,-622.305297852,-3506.874755859,503.607513428,-585.340820313,-3497.201904297,,,,,,,,,,
62,465.585388184,-616.100708008,-3505.806152344,497.517242432,-653.104980469,-3515.322509766,535.836181641,-622.201293945,-3507.113525391,503.723968506,-585.217468262,-3497.498779297,,,,,,,,,,
63,465.629364014,-615.897705078,-3506.106933594,497.525970459,-652.947692871,-3515.646728516,535.879394531,-622.111145020,-3507.356445313,503.813995361,-585.093383789,-3497.797851563,,,,,,,,,,
64,465.662994385,-615.683166504,-3506.550048828,497.524200439,-652.786926270,-3516.152343750,535.904968262,-622.016601563,-3507.651123047,503.888214111,-584.963317871,-3498.094970703,,,,,,,,,,
65,465.709411621,-615.468261719,-3507.016601563,497.533386230,-652.582031250,-3516.625732422,535.950012207,-621.871887207,-3508.059082031,503.951843262,-584.795776367,-3498.402343750,,,,,,,,,,
66,465.795928955,-615.245056152,-3507.370849609,497.607940674,-652.337524414,-3517.010253906,536.049011230,-621.665710449,-3508.472412109,504.047973633,-584.593872070,-3498.717773438,,,,,,,,,,
67,465.938537598,-615.016479492,-3507.814208984,497.759643555,-652.083496094,-3517.550537109,536.197631836,-621.432189941,-3508.940673828,504.198455811,-584.382812500,-3499.139404297,,,,,,,,,,
68,466.115661621,-614.785644531,-3508.339599609,497.936340332,-651.835205078,-3518.158447266,536.366577148,-621.182678223,-3509.477050781,504.376098633,-584.169921875,-3499.584960938,,,,,,,,,,
69,466.259307861,-614.542175293,-3508.713867188,498.072967529,-651.575500488,-3518.678222656,536.520751953,-620.945678711,-3509.975830078,504.534790039,-583.965454102,-3499.979003906,,,,,,,,,,
70,466.388824463,-614.335205078,-3509.208984375,498.180023193,-651.332214355,-3519.330322266,536.637573242,-620.737060547,-3510.515380859,504.684143066,-583.781677246,-3500.403564453,,,,,,,,,,
71,466.519592285,-614.131164551,-3509.751953125,498.273468018,-651.110717773,-3519.946533203,536.767089844,-620.561584473,-3511.214355469,504.828857422,-583.613098145,-3500.884765625,,,,,,,,,,
72,466.609649658,-613.937133789,-3510.209228516,498.336639404,-650.915832520,-3520.533691406,536.861450195,-620.413757324,-3511.764404297,504.964538574,-583.472595215,-3501.315673828,,,,,,,,,,
73,466.676086426,-613.721923828,-3510.574951172,498.389648438,-650.723999023,-3521.225341797,536.929443359,-620.278991699,-3512.244628906,505.080017090,-583.342712402,-3501.708984375,,,,,,,,,,
74,466.750915527,-613.542602539,-3511.097656250,498.388397217,-650.531860352,-3521.730224609,536.979248047,-620.152648926,-3512.764160156,505.170227051,-583.213439941,-3502.092773438,,,,,,,,,,
75,466.787414551,-613.346008301,-3511.567871094,498.360290527,-650.338500977,-3522.195068359,536.999389648,-620.028930664,-3513.247558594,505.248474121,-583.085205078,-3502.496093750,,,,,,,,,,
76,466.811553955,-613.143737793,-3511.935058594,498.343719482,-650.155029297,-3522.740966797,537.025817871,-619.925109863,-3513.707519531,505.328002930,-582.958435059,-3502.892578125,,,,,,,,,,
77,466.875640869,-612.942321777,-3512.386474609,498.363891602,-649.978393555,-3523.343505859,537.068176270,-619.800537109,-3514.142089844,505.420806885,-582.820861816,-3503.235107422,,,,,,,,,,
78,466.981781006,-612.738159180,-3512.828857422,498.434204102,-649.761718750,-3523.789306641,537.164001465,-619.624145508,-3514.625976563,505.530731201,-582.646789551,-3503.548339844,,,,,,,,,,
79,467.128173828,-612.536743164,-3513.216796875,498.577178955,-649.518676758,-3524.317382813,537.322082520,-619.413269043,-3515.203613281,505.673400879,-582.463317871,-3503.932128906,,,,,,,,,,
80,467.284149170,-612.341674805,-3513.623291016,498.742828369,-649.265991211,-3524.891113281,537.473205566,-619.164916992,-3515.603271484,505.841094971,-582.276367188,-3504.365722656,,,,,,,,,,
81,467.446990967,-612.146240234,-3514.117187500,498.879852295,-649.042419434,-3525.403564453,537.619873047,-618.962097168,-3516.049560547,506.005554199,-582.108947754,-3504.743652344,,,,,,,,,,
82,467.577636719,-611.936218262,-3514.534423828,498.998840332,-648.824157715,-3526.024658203,537.764160156,-618.791137695,-3516.640136719,506.159606934,-581.953735352,-3505.107666016,,,,,,,,,,
83,467.690795898,-611.734436035,-3514.857666016,499.090789795,-648.591552734,-3526.516113281,537.877929688,-618.607238770,-3517.163818359,506.293151855,-581.785949707,-3505.457275391,,,,,,,,,,
84,467.799285889,-611.546936035,-3515.246093750,499.165557861,-648.383178711,-3526.953613281,537.967712402,-618.436889648,-3517.546386719,506.424560547,-581.628112793,-3505.794433594,,,,,,,,,,
85,467.900115967,-611.377197266,-3515.746337891,499.242492676,-648.196655273,-3527.515625000,538.051940918,-618.282348633,-3517.972412109,506.542449951,-581.490234375,-3506.120849609,,,,,,,,,,
86,468.000885010,-611.192993164,-3516.120361328,499.328552246,-648.012390137,-3528.053222656,538.152221680,-618.128906250,-3518.428955078,506.654327393,-581.352905273,-3506.425292969,,,,,,,,,,
87,468.085296631,-610.993103027,-3516.406494141,499.387451172,-647.806640625,-3528.425048828,538.242065430,-617.979614258,-3518.785888672,506.763885498,-581.212646484,-3506.699462891,,,,,,,,,,
88,468.150756836,-610.787963867,-3516.724609375,499.433288574,-647.608276367,-3528.785888672,538.306152344,-617.841735840,-3519.094726563,506.859344482,-581.070861816,-3506.970214844,,,,,,,,,,
89,468.225372314,-610.587768555,-3517.094726563,499.494201660,-647.392700195,-3529.211914063,538.365661621,-617.677673340,-3519.420654297,506.933868408,-580.908630371,-3507.259277344,,,,,,,,,,
90,468.280700684,-610.385864258,-3517.451171875,499.529083252,-647.170043945,-3529.600830078,538.423339844,-617.494079590,-3519.824462891,506.988983154,-580.721923828,-3507.501953125,,,,,,,,,,
91,468.321594238,-610.169433594,-3517.712158203,499.548309326,-646.954101563,-3529.931884766,538.465881348,-617.309936523,-3520.128906250,507.048797607,-580.548400879,-3507.717529297,,,,,,,,,,
92,468.392364502,-609.954345703,-3518.034667969,499.619110107,-646.722778320,-3530.358154297,538.519775391,-617.089233398,-3520.403076172,507.121368408,-580.363525391,-3507.921386719,,,,,,,,,,
93,468.511657715,-609.752258301,-3518.337646484,499.772827148,-646.465576172,-3530.753906250,538.651123047,-616.812866211,-3520.762695313,507.229156494,-580.144470215,-3508.259765625,,,,,,,,,,
94,468.672332764,-609.572204590,-3518.589355469,499.956329346,-646.225891113,-3531.066406250,538.825683594,-616.538391113,-3521.200195313,507.371490479,-579.923889160,-3508.580322266,,,,,,,,,,
95,468.821380615,-609.393493652,-3518.839355469,500.131439209,-646.020629883,-3531.495849609,538.974487305,-616.313537598,-3521.465087891,507.495117188,-579.739257813,-3508.785156250,,,,,,,,,,
96,468.959381104,-609.236389160,-3519.143310547,500.291198730,-645.821350098,-3531.919433594,539.094604492,-616.093322754,-3521.670898438,507.610778809,-579.567749023,-3508.973144531,,,,,,,,,,
97,469.055053711,-609.074951172,-3519.438720703,500.359497070,-645.633666992,-3532.167968750,539.184814453,-615.924621582,-3521.987792969,507.712646484,-579.418762207,-3509.254638672,,,,,,,,,,
98,469.101501465,-608.898498535,-3519.670166016,500.376373291,-645.464233398,-3532.387451172,539.246826172,-615.808654785,-3522.335205078,507.783020020,-579.290710449,-3509.510986328,,,,,,,,,,
99,469.123229980,-608.721618652,-3519.895507813,500.392181396,-645.303161621,-3532.745605469,539.274230957,-615.688110352,-3522.603271484,507.835235596,-579.161132813,-3509.725097656,,,,,,,,,,
100,469.153350830,-608.540283203,-3520.138916016,500.419097900,-645.114257813,-3533.094970703,539.296569824,-615.529357910,-3522.815185547,507.873474121,-579.005065918,-3509.905273438,,,,,,,,,,
101,469.175445557,-608.344177246,-3520.428466797,500.424407959,-644.927368164,-3533.362060547,539.310119629,-615.364990234,-3522.946777344,507.895050049,-578.829711914,-3510.018554688,,,,,,,,,,
